Data from SAN_SAN_00001.txt Node
Date: Fri Apr 03 16:12:24 CEST 2015
User: User
Spectrometer: NQ51A0689
Autoset integration time: false
Trigger mode: 0
Integration Time (sec): 1.000000E0
Scans to average: 1
Nonlinearity correction enabled: false
Boxcar width: 2
Stray light correction enabled: false
XAxis mode: Wavelengths
Stop averaging: false
Storing dark spectrum: false
Number of Pixels in Spectrum: 512
>>>>>Begin Spectral Data<<<<<
899.175	0E0
900.806	0E0
902.437	0E0
904.067	0E0
905.698	0E0
907.328	0E0
908.958	0E0
910.588	0E0
912.218	0E0
913.847	0E0
915.477	0E0
917.106	0E0
918.735	0E0
920.364	0E0
921.993	0E0
923.621	0E0
925.25	0E0
926.878	0E0
928.506	0E0
930.134	0E0
931.762	0E0
933.389	0E0
935.016	0E0
936.644	0E0
938.271	0E0
939.897	0E0
941.524	0E0
943.151	0E0
944.777	0E0
946.403	0E0
948.029	0E0
949.655	0E0
951.28	0E0
952.906	0E0
954.531	0E0
956.156	0E0
957.781	0E0
959.406	0E0
961.03	0E0
962.655	0E0
964.279	0E0
965.903	0E0
967.527	0E0
969.15	0E0
970.774	0E0
972.397	0E0
974.02	0E0
975.643	0E0
977.266	0E0
978.889	0E0
980.511	0E0
982.133	0E0
983.756	0E0
985.378	0E0
986.999	0E0
988.621	0E0
990.242	0E0
991.864	0E0
993.485	0E0
995.105	0E0
996.726	0E0
998.347	0E0
999.967	0E0
1001.587	0E0
1003.207	0E0
1004.827	0E0
1006.447	0E0
1008.066	0E0
1009.686	0E0
1011.305	0E0
1012.924	0E0
1014.543	0E0
1016.161	0E0
1017.78	0E0
1019.398	0E0
1021.016	0E0
1022.634	1.41357E-4
1024.252	1.04305E-4
1025.869	2.26918E-4
1027.487	1.16771E-4
1029.104	1.57045E-4
1030.721	11.8024E-6
1032.338	64.511E-6
1033.954	74.5406E-6
1035.571	1.60728E-4
1037.187	2.88604E-4
1038.803	3.24059E-4
1040.419	3.75431E-4
1042.035	4.47627E-4
1043.651	4.0128E-4
1045.266	4.1897E-4
1046.882	3.66018E-4
1048.497	4.15949E-4
1050.112	2.77613E-4
1051.726	3.1065E-4
1053.341	2.18547E-4
1054.955	2.64009E-4
1056.57	2.40828E-4
1058.184	3.05823E-4
1059.797	2.79393E-4
1061.411	2.96175E-4
1063.025	2.81012E-4
1064.638	3.49037E-4
1066.251	3.84691E-4
1067.864	5.03973E-4
1069.477	5.58828E-4
1071.09	6.33557E-4
1072.702	5.15571E-4
1074.314	5.89843E-4
1075.927	4.14767E-4
1077.539	4.03369E-4
1079.15	3.02807E-4
1080.762	3.66232E-4
1082.373	2.53658E-4
1083.985	2.43509E-4
1085.596	2.64324E-4
1087.207	3.11976E-4
1088.817	3.70249E-4
1090.428	4.24459E-4
1092.038	5.40796E-4
1093.648	4.48831E-4
1095.258	4.95608E-4
1096.868	5.36186E-4
1098.478	4.91279E-4
1100.087	5.28481E-4
1101.697	5.63395E-4
1103.306	6.45758E-4
1104.915	6.00723E-4
1106.523	7.00735E-4
1108.132	6.73759E-4
1109.74	8.73214E-4
1111.349	8.97748E-4
1112.957	9.78403E-4
1114.565	10.555E-4
1116.172	12.1966E-4
1117.78	13.1071E-4
1119.387	14.4061E-4
1120.994	16.2553E-4
1122.601	19.2699E-4
1124.208	21.8737E-4
1125.815	23.4685E-4
1127.421	26.658E-4
1129.028	29.7992E-4
1130.634	32.6999E-4
1132.24	37.6204E-4
1133.846	44.1495E-4
1135.451	50.5299E-4
1137.057	58.0533E-4
1138.662	64.4312E-4
1140.267	69.6261E-4
1141.872	72.7301E-4
1143.476	74.6969E-4
1145.081	74.2118E-4
1146.685	73.4095E-4
1148.29	71.547E-4
1149.894	68.2128E-4
1151.497	63.0476E-4
1153.101	57.7454E-4
1154.704	50.9224E-4
1156.308	43.4986E-4
1157.911	36.8735E-4
1159.514	30.9411E-4
1161.117	25.1364E-4
1162.719	21.3608E-4
1164.322	17.701E-4
1165.924	14.5993E-4
1167.526	13.1627E-4
1169.128	11.9236E-4
1170.729	10.1414E-4
1172.331	9.38496E-4
1173.932	8.97078E-4
1175.533	9.02149E-4
1177.134	9.13888E-4
1178.735	10.3912E-4
1180.336	11.3074E-4
1181.936	13.1251E-4
1183.537	14.0608E-4
1185.137	15.7785E-4
1186.737	17.7688E-4
1188.336	20.3119E-4
1189.936	22.9578E-4
1191.535	26.0979E-4
1193.135	29.5311E-4
1194.734	31.5685E-4
1196.332	33.6414E-4
1197.931	35.0733E-4
1199.53	35.9897E-4
1201.128	38.2761E-4
1202.726	39.5354E-4
1204.324	40.8363E-4
1205.922	41.0909E-4
1207.519	41.2835E-4
1209.117	38.9148E-4
1210.714	37.7746E-4
1212.311	35.7906E-4
1213.908	34.1642E-4
1215.505	32.6627E-4
1217.101	31.3982E-4
1218.698	29.7302E-4
1220.294	28.2786E-4
1221.89	26.6457E-4
1223.486	25.7883E-4
1225.081	24.0896E-4
1226.677	23.28E-4
1228.272	21.4961E-4
1229.867	21.4216E-4
1231.462	18.8501E-4
1233.057	17.7015E-4
1234.651	16.2244E-4
1236.246	15.8434E-4
1237.84	13.5213E-4
1239.434	13.0978E-4
1241.028	12.6231E-4
1242.622	11.5846E-4
1244.215	10.684E-4
1245.809	10.3244E-4
1247.402	9.67519E-4
1248.995	8.82922E-4
1250.587	7.84527E-4
1252.18	7.53479E-4
1253.773	6.11009E-4
1255.365	7.01516E-4
1256.957	5.98556E-4
1258.549	6.56033E-4
1260.141	5.18732E-4
1261.732	5.94127E-4
1263.323	4.4282E-4
1264.915	4.87833E-4
1266.506	4.17286E-4
1268.096	4.6406E-4
1269.687	4.10889E-4
1271.278	3.69565E-4
1272.868	3.23887E-4
1274.458	3.54262E-4
1276.048	2.79286E-4
1277.638	3.55531E-4
1279.227	2.23793E-4
1280.817	2.16778E-4
1282.406	1.06612E-4
1283.995	1.36126E-4
1285.584	72.9736E-6
1287.172	2.36505E-4
1288.761	2.61972E-4
1290.349	3.36463E-4
1291.937	3.44862E-4
1293.525	3.87701E-4
1295.113	3.49139E-4
1296.701	3.08616E-4
1298.288	3.2346E-4
1299.875	3.15867E-4
1301.462	2.91064E-4
1303.049	3.84935E-4
1304.636	3.45934E-4
1306.223	2.97251E-4
1307.809	2.85053E-4
1309.395	2.80331E-4
1310.981	2.30878E-4
1312.567	3.4215E-4
1314.153	3.5569E-4
1315.738	3.56697E-4
1317.323	3.26421E-4
1318.908	2.73076E-4
1320.493	2.16695E-4
1322.078	1.90188E-4
1323.663	1.45479E-4
1325.247	1.96951E-4
1326.831	1.46125E-4
1328.415	95.2497E-6
1329.999	64.8558E-6
1331.583	1.1916E-4
1333.166	0E0
1334.749	0E0
1336.333	0E0
1337.915	0E0
1339.498	0E0
1341.081	0E0
1342.663	0E0
1344.245	0E0
1345.827	0E0
1347.409	0E0
1348.991	0E0
1350.572	0E0
1352.154	0E0
1353.735	0E0
1355.316	0E0
1356.897	0E0
1358.477	0E0
1360.058	0E0
1361.638	0E0
1363.218	0E0
1364.798	0E0
1366.377	0E0
1367.957	0E0
1369.536	0E0
1371.115	0E0
1372.694	0E0
1374.273	0E0
1375.852	0E0
1377.43	0E0
1379.008	0E0
1380.587	0E0
1382.164	0E0
1383.742	0E0
1385.32	0E0
1386.897	0E0
1388.474	0E0
1390.051	0E0
1391.628	0E0
1393.205	0E0
1394.781	0E0
1396.357	0E0
1397.933	0E0
1399.509	0E0
1401.085	0E0
1402.66	0E0
1404.236	21.9311E-6
1405.811	3.93285E-4
1407.386	7.17313E-4
1408.961	9.27929E-4
1410.535	9.63773E-4
1412.11	11.7061E-4
1413.684	12.1928E-4
1415.258	12.6108E-4
1416.832	11.7245E-4
1418.406	11.3731E-4
1419.979	10.2607E-4
1421.553	7.88378E-4
1423.126	6.87626E-4
1424.699	5.97337E-4
1426.272	4.0843E-4
1427.844	2.0174E-4
1429.417	1.85635E-4
1430.989	0E0
1432.561	0E0
1434.133	0E0
1435.705	0E0
1437.276	0E0
1438.848	0E0
1440.419	0E0
1441.99	0E0
1443.561	0E0
1445.131	0E0
1446.702	0E0
1448.272	0E0
1449.842	0E0
1451.412	0E0
1452.982	0E0
1454.551	0E0
1456.121	0E0
1457.69	0E0
1459.259	0E0
1460.828	0E0
1462.396	0E0
1463.965	0E0
1465.533	0E0
1467.101	0E0
1468.669	0E0
1470.237	0E0
1471.804	0E0
1473.372	0E0
1474.939	0E0
1476.506	0E0
1478.073	0E0
1479.639	0E0
1481.206	0E0
1482.772	0E0
1484.338	0E0
1485.904	0E0
1487.47	0E0
1489.035	0E0
1490.601	0E0
1492.166	0E0
1493.731	0E0
1495.296	0E0
1496.86	0E0
1498.425	0E0
1499.989	0E0
1501.553	0E0
1503.117	0E0
1504.681	0E0
1506.244	0E0
1507.808	0E0
1509.371	0E0
1510.934	0E0
1512.497	0E0
1514.059	0E0
1515.622	0E0
1517.184	0E0
1518.746	0E0
1520.308	0E0
1521.87	0E0
1523.431	0E0
1524.993	0E0
1526.554	0E0
1528.115	0E0
1529.676	0E0
1531.236	0E0
1532.797	0E0
1534.357	0E0
1535.917	0E0
1537.477	0E0
1539.037	0E0
1540.596	0E0
1542.155	0E0
1543.715	0E0
1545.273	0E0
1546.832	0E0
1548.391	0E0
1549.949	0E0
1551.508	0E0
1553.066	0E0
1554.623	0E0
1556.181	0E0
1557.739	0E0
1559.296	0E0
1560.853	0E0
1562.41	0E0
1563.967	0E0
1565.523	0E0
1567.08	0E0
1568.636	0E0
1570.192	0E0
1571.748	0E0
1573.304	0E0
1574.859	0E0
1576.414	0E0
1577.969	0E0
1579.524	0E0
1581.079	0E0
1582.634	0E0
1584.188	0E0
1585.742	0E0
1587.296	0E0
1588.85	0E0
1590.404	0E0
1591.957	0E0
1593.51	0E0
1595.064	0E0
1596.616	0E0
1598.169	0E0
1599.722	0E0
1601.274	0E0
1602.826	0E0
1604.378	0E0
1605.93	0E0
1607.482	0E0
1609.033	0E0
1610.584	0E0
1612.135	0E0
1613.686	0E0
1615.237	0E0
1616.787	0E0
1618.338	0E0
1619.888	0E0
1621.438	0E0
1622.988	0E0
1624.537	0E0
1626.087	0E0
1627.636	0E0
1629.185	0E0
1630.734	0E0
1632.282	1.13518E-4
1633.831	4.33009E-4
1635.379	7.00879E-4
1636.927	7.66389E-4
1638.475	8.42323E-4
1640.023	7.38647E-4
1641.571	7.83162E-4
1643.118	9.8929E-4
1644.665	11.4979E-4
1646.212	12.2237E-4
1647.759	13.9516E-4
1649.306	12.269E-4
1650.852	9.68963E-4
1652.398	6.35468E-4
1653.944	7.23196E-4
1655.49	6.72243E-4
1657.036	12.0408E-4
1658.582	15.0315E-4
1660.127	22.2952E-4
1661.672	22.9043E-4
1663.217	27.698E-4
1664.762	27.2568E-4
1666.306	26.5584E-4
1667.851	25.1032E-4
1669.395	25.2129E-4
1670.939	24.497E-4
1672.483	20.375E-4
1674.027	26.7382E-4
1675.57	23.1208E-4
1677.113	23.4349E-4
1678.657	26.0045E-4
1680.2	36.2367E-4
1681.742	32.2641E-4
1683.285	37.1175E-4
1684.827	35.4246E-4
1686.369	39.2303E-4
1687.911	30.7463E-4
1689.453	32.5648E-4
1690.995	31.3282E-4
1692.536	64.1016E-4
1694.078	58.8486E-4
1695.619	85.1015E-4
1697.16	97.0166E-4
1698.7	1.22528E-2
1700.241	1.19059E-2
1701.781	1.41456E-2
1703.321	1.47828E-2
1704.861	1.63317E-2
1706.401	1.6345E-2
1707.941	1.6205E-2
1709.48	1.65363E-2
