Data from ABS_ABSThree_00001.txt Node
Date: Fri Apr 03 16:05:41 CEST 2015
User: User
Spectrometer: NQ51A0689
Autoset integration time: false
Trigger mode: 0
Integration Time (sec): 1.000000E0
Scans to average: 1
Nonlinearity correction enabled: false
Boxcar width: 2
Stray light correction enabled: false
XAxis mode: Wavelengths
Stop averaging: false
Storing dark spectrum: false
Number of Pixels in Spectrum: 512
>>>>>Begin Spectral Data<<<<<
899.175	0E0
900.806	0E0
902.437	0E0
904.067	0E0
905.698	0E0
907.328	0E0
908.958	0E0
910.588	0E0
912.218	0E0
913.847	0E0
915.477	0E0
917.106	0E0
918.735	0E0
920.364	0E0
921.993	0E0
923.621	0E0
925.25	0E0
926.878	0E0
928.506	0E0
930.134	0E0
931.762	0E0
933.389	0E0
935.016	0E0
936.644	0E0
938.271	0E0
939.897	0E0
941.524	0E0
943.151	0E0
944.777	0E0
946.403	0E0
948.029	0E0
949.655	0E0
951.28	0E0
952.906	0E0
954.531	0E0
956.156	0E0
957.781	0E0
959.406	0E0
961.03	0E0
962.655	0E0
964.279	0E0
965.903	48.115E-6
967.527	12.573E-6
969.15	0E0
970.774	0E0
972.397	0E0
974.02	0E0
975.643	0E0
977.266	0E0
978.889	10.2066E-6
980.511	1.08463E-4
982.133	85.4029E-6
983.756	2.76117E-4
985.378	2.61471E-4
986.999	3.77618E-4
988.621	3.54918E-4
990.242	4.39362E-4
991.864	3.76202E-4
993.485	4.61133E-4
995.105	5.46578E-4
996.726	4.7563E-4
998.347	5.16135E-4
999.967	4.8828E-4
1001.587	3.87592E-4
1003.207	3.42422E-4
1004.827	5.26884E-4
1006.447	4.92065E-4
1008.066	6.04511E-4
1009.686	6.8355E-4
1011.305	6.97403E-4
1012.924	5.99699E-4
1014.543	6.73157E-4
1016.161	6.37227E-4
1017.78	6.21924E-4
1019.398	7.3511E-4
1021.016	7.24194E-4
1022.634	9.16005E-4
1024.252	9.09749E-4
1025.869	9.46484E-4
1027.487	9.26364E-4
1029.104	9.07376E-4
1030.721	8.11333E-4
1032.338	8.8072E-4
1033.954	9.97866E-4
1035.571	9.43853E-4
1037.187	11.5275E-4
1038.803	11.726E-4
1040.419	12.3223E-4
1042.035	11.8473E-4
1043.651	12.2993E-4
1045.266	12.7644E-4
1046.882	12.2639E-4
1048.497	11.6866E-4
1050.112	11.8586E-4
1051.726	12.4892E-4
1053.341	10.8676E-4
1054.955	11.2103E-4
1056.57	11.3309E-4
1058.184	11.4781E-4
1059.797	10.6804E-4
1061.411	10.4351E-4
1063.025	10.1625E-4
1064.638	10.4321E-4
1066.251	11.4626E-4
1067.864	12.2415E-4
1069.477	13.1432E-4
1071.09	14.4201E-4
1072.702	13.7268E-4
1074.314	14.3802E-4
1075.927	13.1236E-4
1077.539	13.377E-4
1079.15	11.6924E-4
1080.762	12.6126E-4
1082.373	11.6353E-4
1083.985	11.809E-4
1085.596	11.0068E-4
1087.207	11.6682E-4
1088.817	11.7246E-4
1090.428	11.846E-4
1092.038	12.5655E-4
1093.648	12.3086E-4
1095.258	13.3071E-4
1096.868	13.6621E-4
1098.478	12.9076E-4
1100.087	12.8391E-4
1101.697	13.0087E-4
1103.306	12.3796E-4
1104.915	10.9642E-4
1106.523	11.4117E-4
1108.132	11.2209E-4
1109.74	11.9312E-4
1111.349	12.6826E-4
1112.957	13.1003E-4
1114.565	12.0869E-4
1116.172	12.1971E-4
1117.78	12.285E-4
1119.387	11.9958E-4
1120.994	12.1723E-4
1122.601	13.2719E-4
1124.208	12.9905E-4
1125.815	11.8826E-4
1127.421	10.9493E-4
1129.028	10.4866E-4
1130.634	9.6139E-4
1132.24	8.04921E-4
1133.846	7.88335E-4
1135.451	7.88967E-4
1137.057	8.05243E-4
1138.662	6.84631E-4
1140.267	7.36323E-4
1141.872	6.68619E-4
1143.476	5.83325E-4
1145.081	4.94005E-4
1146.685	4.84829E-4
1148.29	4.93066E-4
1149.894	4.64327E-4
1151.497	4.49341E-4
1153.101	3.69158E-4
1154.704	3.72307E-4
1156.308	2.22284E-4
1157.911	2.52484E-4
1159.514	92.9337E-6
1161.117	12.6522E-6
1162.719	0E0
1164.322	0E0
1165.924	0E0
1167.526	0E0
1169.128	0E0
1170.729	0E0
1172.331	0E0
1173.932	0E0
1175.533	0E0
1177.134	0E0
1178.735	0E0
1180.336	0E0
1181.936	0E0
1183.537	0E0
1185.137	0E0
1186.737	0E0
1188.336	0E0
1189.936	0E0
1191.535	0E0
1193.135	0E0
1194.734	0E0
1196.332	0E0
1197.931	0E0
1199.53	0E0
1201.128	53.4377E-6
1202.726	1.61883E-4
1204.324	2.46383E-4
1205.922	2.60401E-4
1207.519	3.56716E-4
1209.117	3.42663E-4
1210.714	3.68095E-4
1212.311	3.6687E-4
1213.908	4.98733E-4
1215.505	5.1437E-4
1217.101	5.37001E-4
1218.698	6.13999E-4
1220.294	7.18274E-4
1221.89	7.8001E-4
1223.486	8.53576E-4
1225.081	9.20802E-4
1226.677	9.33598E-4
1228.272	9.27973E-4
1229.867	9.60739E-4
1231.462	9.46601E-4
1233.057	9.13266E-4
1234.651	9.27265E-4
1236.246	9.88539E-4
1237.84	9.45958E-4
1239.434	9.85339E-4
1241.028	10.6407E-4
1242.622	10.6397E-4
1244.215	10.0988E-4
1245.809	10.8543E-4
1247.402	10.2831E-4
1248.995	11.4073E-4
1250.587	10.4184E-4
1252.18	11.6641E-4
1253.773	10.888E-4
1255.365	12.3274E-4
1256.957	10.8184E-4
1258.549	11.7721E-4
1260.141	10.7677E-4
1261.732	11.1311E-4
1263.323	10.3854E-4
1264.915	10.7043E-4
1266.506	10.5421E-4
1268.096	10.7335E-4
1269.687	10.9513E-4
1271.278	11.4333E-4
1272.868	10.832E-4
1274.458	12.0193E-4
1276.048	12.25E-4
1277.638	12.8772E-4
1279.227	12.0455E-4
1280.817	12.84E-4
1282.406	12.202E-4
1283.995	12.1337E-4
1285.584	11.7007E-4
1287.172	12.7833E-4
1288.761	12.6898E-4
1290.349	13.3938E-4
1291.937	13.4926E-4
1293.525	13.9465E-4
1295.113	13.7359E-4
1296.701	13.9798E-4
1298.288	13.9952E-4
1299.875	13.8374E-4
1301.462	14.0932E-4
1303.049	14.3208E-4
1304.636	14.0071E-4
1306.223	13.3387E-4
1307.809	13.1272E-4
1309.395	12.8337E-4
1310.981	12.9412E-4
1312.567	13.5843E-4
1314.153	14.1595E-4
1315.738	14.555E-4
1317.323	14.5744E-4
1318.908	14.0415E-4
1320.493	14.1124E-4
1322.078	12.9655E-4
1323.663	13.3663E-4
1325.247	13.1412E-4
1326.831	12.9724E-4
1328.415	12.6919E-4
1329.999	12.9188E-4
1331.583	12.2573E-4
1333.166	11.0187E-4
1334.749	10.6846E-4
1336.333	9.5397E-4
1337.915	8.72301E-4
1339.498	7.62814E-4
1341.081	6.97008E-4
1342.663	5.63569E-4
1344.245	4.58128E-4
1345.827	4.28223E-4
1347.409	3.4222E-4
1348.991	2.58093E-4
1350.572	1.58937E-4
1352.154	78.6399E-6
1353.735	11.0607E-6
1355.316	0E0
1356.897	0E0
1358.477	0E0
1360.058	0E0
1361.638	0E0
1363.218	0E0
1364.798	0E0
1366.377	0E0
1367.957	0E0
1369.536	0E0
1371.115	0E0
1372.694	0E0
1374.273	0E0
1375.852	0E0
1377.43	0E0
1379.008	0E0
1380.587	0E0
1382.164	0E0
1383.742	0E0
1385.32	0E0
1386.897	0E0
1388.474	0E0
1390.051	0E0
1391.628	0E0
1393.205	0E0
1394.781	0E0
1396.357	0E0
1397.933	0E0
1399.509	0E0
1401.085	0E0
1402.66	0E0
1404.236	0E0
1405.811	0E0
1407.386	0E0
1408.961	0E0
1410.535	0E0
1412.11	0E0
1413.684	0E0
1415.258	0E0
1416.832	0E0
1418.406	0E0
1419.979	0E0
1421.553	0E0
1423.126	0E0
1424.699	0E0
1426.272	0E0
1427.844	0E0
1429.417	0E0
1430.989	0E0
1432.561	0E0
1434.133	0E0
1435.705	0E0
1437.276	0E0
1438.848	0E0
1440.419	0E0
1441.99	0E0
1443.561	0E0
1445.131	0E0
1446.702	0E0
1448.272	0E0
1449.842	0E0
1451.412	0E0
1452.982	0E0
1454.551	0E0
1456.121	0E0
1457.69	0E0
1459.259	0E0
1460.828	0E0
1462.396	0E0
1463.965	0E0
1465.533	0E0
1467.101	0E0
1468.669	0E0
1470.237	0E0
1471.804	0E0
1473.372	0E0
1474.939	0E0
1476.506	0E0
1478.073	0E0
1479.639	0E0
1481.206	0E0
1482.772	0E0
1484.338	0E0
1485.904	0E0
1487.47	0E0
1489.035	0E0
1490.601	0E0
1492.166	0E0
1493.731	0E0
1495.296	0E0
1496.86	0E0
1498.425	0E0
1499.989	0E0
1501.553	0E0
1503.117	0E0
1504.681	0E0
1506.244	0E0
1507.808	0E0
1509.371	0E0
1510.934	0E0
1512.497	0E0
1514.059	0E0
1515.622	0E0
1517.184	9.6015E-6
1518.746	0E0
1520.308	54.3558E-6
1521.87	1.51958E-4
1523.431	1.814E-4
1524.993	2.03694E-4
1526.554	3.27614E-4
1528.115	3.3194E-4
1529.676	3.19002E-4
1531.236	4.31713E-4
1532.797	4.50503E-4
1534.357	3.97192E-4
1535.917	3.85945E-4
1537.477	3.99643E-4
1539.037	2.98137E-4
1540.596	3.00418E-4
1542.155	2.61769E-4
1543.715	2.32555E-4
1545.273	2.03336E-4
1546.832	2.6841E-4
1548.391	2.33314E-4
1549.949	2.09412E-4
1551.508	1.97406E-4
1553.066	1.22135E-4
1554.623	1.13024E-4
1556.181	87.3043E-6
1557.739	1.41844E-4
1559.296	1.35307E-4
1560.853	81.1595E-6
1562.41	32.8211E-6
1563.967	0E0
1565.523	0E0
1567.08	0E0
1568.636	5.62897E-6
1570.192	0E0
1571.748	0E0
1573.304	0E0
1574.859	0E0
1576.414	0E0
1577.969	0E0
1579.524	0E0
1581.079	0E0
1582.634	0E0
1584.188	0E0
1585.742	0E0
1587.296	0E0
1588.85	0E0
1590.404	0E0
1591.957	5.89746E-6
1593.51	52.4277E-6
1595.064	71.0557E-6
1596.616	51.8625E-6
1598.169	0E0
1599.722	0E0
1601.274	0E0
1602.826	0E0
1604.378	0E0
1605.93	0E0
1607.482	0E0
1609.033	0E0
1610.584	0E0
1612.135	0E0
1613.686	0E0
1615.237	0E0
1616.787	0E0
1618.338	0E0
1619.888	0E0
1621.438	0E0
1622.988	0E0
1624.537	0E0
1626.087	0E0
1627.636	0E0
1629.185	0E0
1630.734	0E0
1632.282	0E0
1633.831	0E0
1635.379	0E0
1636.927	0E0
1638.475	0E0
1640.023	0E0
1641.571	0E0
1643.118	0E0
1644.665	0E0
1646.212	0E0
1647.759	0E0
1649.306	0E0
1650.852	0E0
1652.398	0E0
1653.944	0E0
1655.49	0E0
1657.036	0E0
1658.582	0E0
1660.127	0E0
1661.672	0E0
1663.217	0E0
1664.762	0E0
1666.306	0E0
1667.851	0E0
1669.395	0E0
1670.939	0E0
1672.483	0E0
1674.027	0E0
1675.57	0E0
1677.113	0E0
1678.657	0E0
1680.2	0E0
1681.742	0E0
1683.285	0E0
1684.827	0E0
1686.369	0E0
1687.911	0E0
1689.453	0E0
1690.995	1.15782E-4
1692.536	21.6854E-4
1694.078	17.4579E-4
1695.619	39.1239E-4
1697.16	51.4823E-4
1698.7	63.9373E-4
1700.241	80.6968E-4
1701.781	1.03212E-2
1703.321	1.21021E-2
1704.861	1.37724E-2
1706.401	1.44751E-2
1707.941	1.41538E-2
1709.48	1.40273E-2
