Data from ABS_ABSOne_00001.txt Node
Date: Fri Apr 03 16:05:41 CEST 2015
User: User
Spectrometer: NQ51A0689
Autoset integration time: false
Trigger mode: 0
Integration Time (sec): 1.000000E0
Scans to average: 1
Nonlinearity correction enabled: false
Boxcar width: 2
Stray light correction enabled: false
XAxis mode: Wavelengths
Stop averaging: false
Storing dark spectrum: false
Number of Pixels in Spectrum: 512
>>>>>Begin Spectral Data<<<<<
899.175	0E0
900.806	0E0
902.437	0E0
904.067	0E0
905.698	0E0
907.328	0E0
908.958	0E0
910.588	0E0
912.218	0E0
913.847	0E0
915.477	0E0
917.106	0E0
918.735	0E0
920.364	0E0
921.993	0E0
923.621	0E0
925.25	0E0
926.878	0E0
928.506	0E0
930.134	0E0
931.762	0E0
933.389	0E0
935.016	0E0
936.644	0E0
938.271	0E0
939.897	0E0
941.524	0E0
943.151	0E0
944.777	0E0
946.403	0E0
948.029	0E0
949.655	0E0
951.28	0E0
952.906	0E0
954.531	0E0
956.156	0E0
957.781	0E0
959.406	0E0
961.03	0E0
962.655	0E0
964.279	0E0
965.903	0E0
967.527	0E0
969.15	72.4751E-8
970.774	0E0
972.397	62.6582E-6
974.02	0E0
975.643	0E0
977.266	0E0
978.889	0E0
980.511	86.1018E-6
982.133	2.61461E-4
983.756	2.92127E-4
985.378	4.00856E-4
986.999	3.70163E-4
988.621	4.17385E-4
990.242	4.26665E-4
991.864	6.01054E-4
993.485	5.24125E-4
995.105	7.15354E-4
996.726	6.11189E-4
998.347	6.73036E-4
999.967	6.03514E-4
1001.587	6.27298E-4
1003.207	4.84905E-4
1004.827	4.86034E-4
1006.447	5.08927E-4
1008.066	5.56742E-4
1009.686	5.73498E-4
1011.305	7.01682E-4
1012.924	7.37424E-4
1014.543	7.18701E-4
1016.161	7.95346E-4
1017.78	7.99038E-4
1019.398	8.9812E-4
1021.016	9.02539E-4
1022.634	10.4479E-4
1024.252	9.68985E-4
1025.869	9.8223E-4
1027.487	8.58696E-4
1029.104	8.652E-4
1030.721	7.28736E-4
1032.338	8.96378E-4
1033.954	8.8045E-4
1035.571	9.89289E-4
1037.187	11.2528E-4
1038.803	11.496E-4
1040.419	11.338E-4
1042.035	12.5839E-4
1043.651	12.4846E-4
1045.266	12.9153E-4
1046.882	12.6589E-4
1048.497	12.9193E-4
1050.112	12.303E-4
1051.726	12.3943E-4
1053.341	11.9961E-4
1054.955	11.4249E-4
1056.57	11.95E-4
1058.184	12.293E-4
1059.797	12.4738E-4
1061.411	11.855E-4
1063.025	13.4126E-4
1064.638	12.835E-4
1066.251	13.55E-4
1067.864	12.7858E-4
1069.477	13.8585E-4
1071.09	13.9279E-4
1072.702	12.9767E-4
1074.314	13.4301E-4
1075.927	12.9962E-4
1077.539	12.841E-4
1079.15	11.9754E-4
1080.762	13.6627E-4
1082.373	12.1526E-4
1083.985	13.4905E-4
1085.596	12.9295E-4
1087.207	13.6932E-4
1088.817	13.5819E-4
1090.428	14.7906E-4
1092.038	14.4307E-4
1093.648	14.318E-4
1095.258	14.7155E-4
1096.868	14.9623E-4
1098.478	14.1493E-4
1100.087	14.0046E-4
1101.697	14.0896E-4
1103.306	14.247E-4
1104.915	12.943E-4
1106.523	13.5818E-4
1108.132	12.5396E-4
1109.74	13.609E-4
1111.349	12.6018E-4
1112.957	13.5666E-4
1114.565	12.5918E-4
1116.172	13.5502E-4
1117.78	12.8061E-4
1119.387	13.2362E-4
1120.994	12.936E-4
1122.601	14.0696E-4
1124.208	13.9492E-4
1125.815	12.5345E-4
1127.421	12.3352E-4
1129.028	11.2389E-4
1130.634	9.59856E-4
1132.24	8.05186E-4
1133.846	8.71075E-4
1135.451	8.31253E-4
1137.057	8.39031E-4
1138.662	8.6859E-4
1140.267	8.92051E-4
1141.872	7.96894E-4
1143.476	7.57586E-4
1145.081	6.70756E-4
1146.685	6.07118E-4
1148.29	6.49925E-4
1149.894	6.08224E-4
1151.497	5.65079E-4
1153.101	4.99304E-4
1154.704	5.0258E-4
1156.308	3.17409E-4
1157.911	2.67177E-4
1159.514	55.9438E-6
1161.117	15.6003E-6
1162.719	0E0
1164.322	0E0
1165.924	0E0
1167.526	0E0
1169.128	0E0
1170.729	0E0
1172.331	0E0
1173.932	0E0
1175.533	0E0
1177.134	0E0
1178.735	0E0
1180.336	0E0
1181.936	0E0
1183.537	0E0
1185.137	0E0
1186.737	0E0
1188.336	0E0
1189.936	0E0
1191.535	0E0
1193.135	0E0
1194.734	0E0
1196.332	0E0
1197.931	0E0
1199.53	0E0
1201.128	89.9342E-6
1202.726	1.50873E-4
1204.324	2.70752E-4
1205.922	2.91047E-4
1207.519	4.00968E-4
1209.117	3.73862E-4
1210.714	4.3138E-4
1212.311	3.97383E-4
1213.908	5.50796E-4
1215.505	5.60585E-4
1217.101	6.61539E-4
1218.698	7.30672E-4
1220.294	8.37988E-4
1221.89	7.91871E-4
1223.486	9.2384E-4
1225.081	9.25268E-4
1226.677	9.71941E-4
1228.272	9.80512E-4
1229.867	10.7129E-4
1231.462	10.051E-4
1233.057	9.76615E-4
1234.651	9.93543E-4
1236.246	10.1798E-4
1237.84	10.3632E-4
1239.434	10.7384E-4
1241.028	11.5129E-4
1242.622	12.2311E-4
1244.215	12.5337E-4
1245.809	12.6166E-4
1247.402	12.872E-4
1248.995	12.9539E-4
1250.587	12.1195E-4
1252.18	12.3806E-4
1253.773	11.5172E-4
1255.365	11.8851E-4
1256.957	11.3638E-4
1258.549	11.6934E-4
1260.141	10.8816E-4
1261.732	11.9208E-4
1263.323	11.7291E-4
1264.915	12.7491E-4
1266.506	11.7959E-4
1268.096	12.8397E-4
1269.687	12.8776E-4
1271.278	12.7482E-4
1272.868	12.1668E-4
1274.458	13.4479E-4
1276.048	13.3832E-4
1277.638	13.4556E-4
1279.227	12.9382E-4
1280.817	12.9845E-4
1282.406	12.3979E-4
1283.995	12.127E-4
1285.584	11.8981E-4
1287.172	12.8037E-4
1288.761	13.408E-4
1290.349	13.5445E-4
1291.937	13.9232E-4
1293.525	14.5367E-4
1295.113	15.0088E-4
1296.701	14.6765E-4
1298.288	15.2341E-4
1299.875	15.2331E-4
1301.462	15.2284E-4
1303.049	15.0244E-4
1304.636	14.5493E-4
1306.223	14.2569E-4
1307.809	13.8333E-4
1309.395	13.5996E-4
1310.981	13.6861E-4
1312.567	14.559E-4
1314.153	15.3871E-4
1315.738	16.0357E-4
1317.323	16.2076E-4
1318.908	16.2025E-4
1320.493	15.7329E-4
1322.078	14.9111E-4
1323.663	14.2374E-4
1325.247	13.772E-4
1326.831	12.6647E-4
1328.415	11.8863E-4
1329.999	11.3138E-4
1331.583	11.1093E-4
1333.166	10.2737E-4
1334.749	10.0081E-4
1336.333	10.0265E-4
1337.915	9.07789E-4
1339.498	8.21523E-4
1341.081	7.54338E-4
1342.663	6.64747E-4
1344.245	5.26074E-4
1345.827	4.66944E-4
1347.409	3.7153E-4
1348.991	2.36771E-4
1350.572	1.07353E-4
1352.154	0E0
1353.735	0E0
1355.316	0E0
1356.897	0E0
1358.477	0E0
1360.058	0E0
1361.638	0E0
1363.218	0E0
1364.798	0E0
1366.377	0E0
1367.957	0E0
1369.536	0E0
1371.115	0E0
1372.694	0E0
1374.273	0E0
1375.852	0E0
1377.43	0E0
1379.008	0E0
1380.587	0E0
1382.164	0E0
1383.742	0E0
1385.32	0E0
1386.897	0E0
1388.474	0E0
1390.051	0E0
1391.628	0E0
1393.205	0E0
1394.781	0E0
1396.357	0E0
1397.933	0E0
1399.509	0E0
1401.085	0E0
1402.66	0E0
1404.236	0E0
1405.811	0E0
1407.386	0E0
1408.961	0E0
1410.535	0E0
1412.11	0E0
1413.684	0E0
1415.258	0E0
1416.832	0E0
1418.406	0E0
1419.979	0E0
1421.553	0E0
1423.126	0E0
1424.699	0E0
1426.272	0E0
1427.844	0E0
1429.417	0E0
1430.989	0E0
1432.561	0E0
1434.133	0E0
1435.705	0E0
1437.276	0E0
1438.848	0E0
1440.419	0E0
1441.99	0E0
1443.561	0E0
1445.131	0E0
1446.702	0E0
1448.272	0E0
1449.842	0E0
1451.412	0E0
1452.982	0E0
1454.551	0E0
1456.121	0E0
1457.69	0E0
1459.259	0E0
1460.828	0E0
1462.396	0E0
1463.965	0E0
1465.533	0E0
1467.101	0E0
1468.669	0E0
1470.237	0E0
1471.804	0E0
1473.372	0E0
1474.939	0E0
1476.506	0E0
1478.073	0E0
1479.639	0E0
1481.206	0E0
1482.772	0E0
1484.338	0E0
1485.904	0E0
1487.47	0E0
1489.035	0E0
1490.601	0E0
1492.166	0E0
1493.731	0E0
1495.296	0E0
1496.86	0E0
1498.425	0E0
1499.989	0E0
1501.553	0E0
1503.117	0E0
1504.681	0E0
1506.244	0E0
1507.808	0E0
1509.371	0E0
1510.934	0E0
1512.497	0E0
1514.059	0E0
1515.622	0E0
1517.184	0E0
1518.746	24.7363E-6
1520.308	1.51154E-4
1521.87	2.58632E-4
1523.431	2.30685E-4
1524.993	3.09963E-4
1526.554	3.0107E-4
1528.115	3.11684E-4
1529.676	2.97971E-4
1531.236	3.73557E-4
1532.797	4.09702E-4
1534.357	3.83757E-4
1535.917	2.72495E-4
1537.477	2.62502E-4
1539.037	2.7739E-4
1540.596	2.51686E-4
1542.155	2.57758E-4
1543.715	2.45588E-4
1545.273	2.47117E-4
1546.832	2.68436E-4
1548.391	2.59785E-4
1549.949	2.56185E-4
1551.508	2.95352E-4
1553.066	2.63939E-4
1554.623	1.58086E-4
1556.181	1.49625E-4
1557.739	1.6414E-4
1559.296	1.83703E-4
1560.853	69.4982E-6
1562.41	1.97145E-4
1563.967	78.9588E-6
1565.523	1.03689E-4
1567.08	81.5578E-6
1568.636	1.7347E-4
1570.192	0E0
1571.748	52.0201E-6
1573.304	0E0
1574.859	0E0
1576.414	0E0
1577.969	0E0
1579.524	0E0
1581.079	0E0
1582.634	0E0
1584.188	0E0
1585.742	0E0
1587.296	0E0
1588.85	0E0
1590.404	0E0
1591.957	92.7209E-6
1593.51	1.03628E-4
1595.064	94.4849E-6
1596.616	1.04263E-4
1598.169	11.9169E-6
1599.722	0E0
1601.274	0E0
1602.826	0E0
1604.378	0E0
1605.93	0E0
1607.482	0E0
1609.033	0E0
1610.584	0E0
1612.135	0E0
1613.686	0E0
1615.237	0E0
1616.787	0E0
1618.338	0E0
1619.888	0E0
1621.438	0E0
1622.988	0E0
1624.537	0E0
1626.087	0E0
1627.636	0E0
1629.185	0E0
1630.734	0E0
1632.282	0E0
1633.831	0E0
1635.379	0E0
1636.927	0E0
1638.475	0E0
1640.023	0E0
1641.571	0E0
1643.118	0E0
1644.665	0E0
1646.212	0E0
1647.759	0E0
1649.306	0E0
1650.852	0E0
1652.398	0E0
1653.944	0E0
1655.49	0E0
1657.036	0E0
1658.582	0E0
1660.127	0E0
1661.672	0E0
1663.217	0E0
1664.762	0E0
1666.306	0E0
1667.851	0E0
1669.395	0E0
1670.939	0E0
1672.483	0E0
1674.027	0E0
1675.57	0E0
1677.113	0E0
1678.657	0E0
1680.2	0E0
1681.742	0E0
1683.285	0E0
1684.827	0E0
1686.369	0E0
1687.911	0E0
1689.453	0E0
1690.995	0E0
1692.536	22.3475E-4
1694.078	15.8317E-4
1695.619	44.6637E-4
1697.16	71.0696E-4
1698.7	91.5298E-4
1700.241	88.3981E-4
1701.781	1.13371E-2
1703.321	1.23176E-2
1704.861	1.3623E-2
1706.401	1.42093E-2
1707.941	1.46551E-2
1709.48	1.47713E-2
